%time,field
1662626184430665270,-0.0
1662626184434618473,-0.0
1662626184442625279,-0.0
1662626184450690190,0.05623617768287659
1662626184458739505,0.1280933976173401
1662626184466667023,0.2071640729904175
1662626184474602734,0.29339275360107425
1662626184482594287,0.386807131767273
1662626184490580373,0.4802215099334717
1662626184498503446,0.5592921733856201
1662626184506685363,0.6311493873596192
1662626184510652329,0.6886352062225343
1662626184518788080,0.7389352321624756
1662626184526726532,0.7676781177520753
1662626184534701251,0.7892353057861329
1662626184542684948,0.7964210033416749
1662626184550634180,0.8
1662626185414750348,0.8
1662626185422665377,0.8
1662626185438688000,0.8
1662626185454660267,0.8
1662626185470647677,0.7389352321624756
1662626185478626857,0.710192346572876
1662626185486598910,0.6598923206329346
1662626185494668527,0.5952208042144775
1662626185502616066,0.5161778450012208
1662626185510630789,0.4227357387542725
1662626185518626311,0.31494991779327397
1662626185522602519,0.2215355157852173
1662626185530644033,0.1280933976173401
1662626185538585050,0.049050459265708925
1662626185546700378,-0.0
1662626185554706382,-0.0
1662626185562596486,-0.0
1662626185566544413,-0.0
1662626185650659867,-0.0
1662626185654609438,-0.0
1662626185662572236,-0.0
1662626185670660832,-0.0
1662626185678646802,-0.0
1662626185686623627,-0.013066361844539643
1662626185694615686,-0.07055213451385499
1662626185702633311,-0.1352236270904541
1662626185710727244,-0.22148003578186037
1662626185718525608,-0.3148944139480591
1662626185722577816,-0.41549453735351566
1662626185730765302,-0.5017231941223145
1662626185738542445,-0.5879796028137207
1662626185746587739,-0.6598368167877198
1662626185754689826,-0.717322587966919
1662626185762678581,-0.7604369163513184
1662626185770778083,-0.79636549949646
1662626185778587105,-0.8
1662626186894530240,-0.7316940307617188
1662626186902654428,-0.7029511451721192
1662626186910609466,-0.6598368167877198
1662626186918565413,-0.6167224884033203
1662626186926576617,-0.5736081600189209
1662626186934603677,-0.5304938316345215
1662626186942555565,-0.4873517513275147
1662626186950652473,-0.43705167770385744
1662626186954478062,-0.393937349319458
1662626186962707378,-0.3436372995376587
1662626186970600212,-0.2933372497558594
1662626186978554723,-0.24303719997406006
1662626186986575872,-0.18552368879318237
1662626186994664137,-0.1280379056930542
1662626187002645622,-0.07055213451385499
1662626187010554279,-0.020252083241939545
1662626187014662341,-0.0
1662626187022658738,-0.0
1662626187030687557,-0.0
1662626187038812508,-0.0
1662626187046605131,-0.0
1662626187054633760,-0.0
1662626187170701319,-0.0
1662626187178641573,-0.0
1662626187186657871,-0.0
1662626187194742219,-0.0
1662626187202581713,0.020307570695877075
1662626187210571232,0.09216479063034058
1662626187214681908,0.18557916879653932
1662626187222687492,0.29339275360107425
1662626187230646116,0.40117855072021485
1662626187238658546,0.5018064022064209
1662626187246619016,0.5880350589752198
1662626187254609588,0.6670780181884766
1662626187262587232,0.7317495346069336
1662626187266526287,0.7317495346069336
1662626187270438816,0.774863862991333
1662626187274686156,0.774863862991333
1662626187278667295,0.7964210033416749
1662626187282613615,0.7964210033416749
1662626187286536177,0.8
1662626188338677449,0.7389352321624756
1662626188346656727,0.710192346572876
1662626188354719322,0.6670780181884766
1662626188362606131,0.6167779445648194
1662626188370655656,0.5592921733856201
1662626188378645489,0.49459295272827153
1662626188386654894,0.41554999351501465
1662626188394675357,0.33650708198547363
1662626188398607265,0.24309267997741701
1662626188406608683,0.1640220046043396
1662626188414659757,0.08497906923294068
1662626188422651404,0.020307570695877075
1662626188430622218,-0.0
1662626188438594058,-0.0
1662626188446724866,-0.0
1662626188450566644,-0.0
1662626188538604002,-0.0
1662626188546725057,-0.0
1662626188554678438,-0.0
1662626188562623034,-0.0
1662626188570644509,-0.0
1662626188578619349,-0.05618069171905518
1662626188586644059,-0.142409348487854
1662626188594654103,-0.25022292137145996
1662626188598568647,-0.3651944637298584
1662626188606609741,-0.46579456329345703
1662626188614688101,-0.5664224147796632
1662626188622642868,-0.6454653739929199
1662626188630756470,-0.717322587966919
1662626188638729014,-0.7676226139068604
1662626188646542802,-0.8
1662626189778659067,-0.7029511451721192
1662626189786676114,-0.6454653739929199
1662626189794600676,-0.5664224147796632
1662626189802498808,-0.46579456329345703
1662626189810675566,-0.3508230209350586
1662626189818694255,-0.24303719997406006
1662626189822559548,-0.14959506988525392
1662626189830685945,-0.06336641311645508
1662626189838672226,-0.0
1662626189846454085,-0.0
1662626189854757535,-0.0
1662626189862709800,-0.0
1662626189962611903,-0.0
1662626189970735527,-0.0
1662626189978527098,-0.0
1662626189986799581,-0.0
1662626189994606865,0.0634218990802765
1662626190002496858,0.1424648404121399
1662626190010592744,0.2502784013748169
1662626190018665686,0.35806424617767335
1662626190022507979,0.4586643218994141
1662626190030633072,0.5521064758300781
1662626190038543385,0.638335132598877
1662626190046573610,0.703006649017334
1662626190054729640,0.7604924201965333
1662626190062559786,0.7892353057861329
1662626190070589406,0.8
1662626191002591040,0.7461209774017334
1662626191010567875,0.7173780918121339
1662626191018598243,0.6814494609832764
1662626191026575461,0.6311493873596192
1662626191034710890,0.5592921733856201
1662626191042604563,0.4730357646942139
1662626191046585068,0.3652499675750733
1662626191054604703,0.26464984416961673
1662626191062635264,0.1712077260017395
1662626191070600747,0.09216479063034058
1662626191078496899,0.013121849298477173
1662626191086628398,-0.0
1662626191094547358,-0.0
1662626191098519548,-0.0
1662626191158549445,-0.0
1662626191166581924,-0.0
1662626191174643850,-0.0
1662626191182636748,-0.0
1662626191190599433,-0.0
1662626191194456689,-0.07055213451385499
1662626191202581697,-0.15678079128265382
1662626191210691370,-0.26459436416625975
1662626191218665549,-0.3795659065246582
1662626191226684790,-0.4873517513275147
1662626191234654364,-0.5807938575744629
1662626191242593794,-0.6598368167877198
1662626191250661379,-0.7245082855224609
1662626191258607209,-0.7748083591461182
1662626191262626091,-0.8
1662626192806614178,-0.6885797023773194
1662626192814632892,-0.6023510456085206
1662626192818526591,-0.4873517513275147
1662626192826604479,-0.37238018512725835
1662626192834704409,-0.2574086427688599
1662626192842506440,-0.142409348487854
1662626192850603592,-0.04899497032165528
1662626192858580062,-0.0
1662626192866496510,-0.0
1662626192870554675,-0.0
1662626192878564899,-0.0
1662626192886502822,0.049050459265708925
1662626192894626035,0.1280933976173401
1662626192902622030,0.2287212371826172
1662626192910624310,0.34369280338287356
1662626192918574383,0.4514786243438721
1662626192926804354,0.5449207305908204
1662626192934690671,0.6311493873596192
1662626192942652427,0.703006649017334
1662626192950667956,0.7533066749572754
1662626192958720603,0.782049560546875
1662626192962588795,0.8
1662626193726748263,0.7317495346069336
1662626193734708755,0.6814494609832764
1662626193742604638,0.6024065017700195
1662626193746545561,0.5089921474456788
1662626193754748140,0.39399285316467286
1662626193762638459,0.2862070322036743
1662626193770606503,0.17839344739913943
1662626193778645873,0.08497906923294068
1662626193786634270,0.005936127528548241
1662626193794693324,-0.0
1662626193798550201,-0.0
1662626193806602915,-0.0
1662626193838610475,-0.0
1662626193846563864,-0.0
1662626193854617884,-0.0
1662626193858512010,-0.0
1662626193866476267,-0.09210929870605469
1662626193874691741,-0.20710859298706055
1662626193882606515,-0.322080135345459
1662626193890591132,-0.43705167770385744
1662626193898607382,-0.5520509719848633
1662626193906650296,-0.6526510715484619
1662626193914714968,-0.7316940307617188
1662626193918568627,-0.789179801940918
1662626193926599951,-0.8
1662626194038674564,-0.7388797283172608
1662626194046554971,-0.6598368167877198
1662626194054660364,-0.5448652744293213
1662626194062611148,-0.42986598014831545
1662626194070677980,-0.3148944139480591
1662626194078554440,-0.18552368879318237
1662626194082565280,-0.04899497032165528
1662626194090587130,-0.0
1662626194098464274,0.020307570695877075
1662626194106445551,0.1712077260017395
1662626194114575713,0.2862070322036743
1662626194122597366,0.40117855072021485
1662626194130606794,0.5161778450012208
1662626194138626305,0.6167779445648194
1662626194146649278,0.710192346572876
1662626194154536903,0.7676781177520753
1662626194158579884,0.8
1662626194310646342,0.7389352321624756
1662626194318578641,0.6598923206329346
1662626194326548210,0.5449207305908204
1662626194334585950,0.4299214363098145
1662626194338451614,0.31494991779327397
1662626194346603844,0.19276489019393922
1662626194354624662,0.05623617768287659
1662626194362614718,-0.0
1662626194370624379,-0.04899497032165528
1662626194378608638,-0.19992287158966066
1662626194386632327,-0.3148944139480591
1662626194394607975,-0.42986598014831545
1662626194398462027,-0.5448652744293213
1662626194406468747,-0.6526510715484619
1662626194414593012,-0.7388797283172608
1662626194422616541,-0.79636549949646
1662626194430444273,-0.8
1662626194550603922,-0.717322587966919
1662626194558602645,-0.6382796287536622
1662626194562499944,-0.5233080863952637
1662626194570679326,-0.40830879211425786
1662626194578547567,-0.2933372497558594
1662626194586578697,-0.16396651268005372
1662626194594523531,-0.027437806129455566
1662626194602567988,-0.0
1662626194610613823,0.08497906923294068
1662626194618565515,0.2359069585800171
1662626194626595949,0.3508785247802735
1662626194630573918,0.4658500671386719
1662626194638541826,0.5808493614196778
1662626194646526016,0.6814494609832764
1662626194654631112,0.7604924201965333
1662626194662631674,0.8
1662626194782669195,0.8
1662626194790618753,0.8
1662626194794469012,0.8
1662626194798360422,0.7461209774017334
1662626194806456866,0.6958209037780763
1662626194814606386,0.6167779445648194
1662626194822626832,0.5018064022064209
1662626194830501062,0.386807131767273
1662626194838575268,0.2718355655670166
1662626194842520866,0.2718355655670166
1662626194846471287,0.1568362832069397
1662626194850523074,0.1568362832069397
1662626194854532216,0.03467901349067688
1662626194858482940,0.03467901349067688
1662626194862535627,-0.0
1662626194866451908,-0.027437806129455566
1662626194874637215,-0.17833796739578248
1662626194882470610,-0.2933372497558594
1662626194890573911,-0.40830879211425786
1662626194898485149,-0.5233080863952637
1662626194906456490,-0.6310939311981202
1662626194914513810,-0.717322587966919
1662626194918382933,-0.7748083591461182
1662626194926498894,-0.8
1662626195014610336,-0.7029511451721192
1662626195022564929,-0.5520509719848633
1662626195030661938,-0.45142312049865724
1662626195038540734,-0.33645157814025883
1662626195046521316,-0.22148003578186037
1662626195054571332,-0.1064807415008545
1662626195062609112,-0.0
1662626195066530747,-0.0
1662626195074587846,-0.0
1662626195150593034,-0.0
1662626195154462921,-0.0
1662626195162533099,0.03467901349067688
1662626195170611175,0.1424648404121399
1662626195178639594,0.2574641227722168
1662626195186593301,0.3652499675750733
1662626195194594826,0.4802215099334717
1662626195202565146,0.5952208042144775
1662626195210696609,0.6814494609832764
1662626195218616403,0.7533066749572754
1662626195222552255,0.7964210033416749
1662626195230645873,0.8
1662626195282813001,0.6742637634277344
1662626195290679738,0.6742637634277344
1662626195294502400,0.5592921733856201
1662626195298513820,0.5592921733856201
1662626195302622720,0.4514786243438721
1662626195306475488,0.32213563919067384
1662626195310542076,0.32213563919067384
1662626195314586872,0.1424648404121399
1662626195318550607,0.1424648404121399
1662626195322595117,-0.0
1662626195326611845,-0.0
1662626195330623574,-0.06336641311645508
1662626195334633178,-0.06336641311645508
1662626195338504610,-0.2574086427688599
1662626195342613381,-0.2574086427688599
1662626195346575472,-0.40830879211425786
1662626195350524555,-0.40830879211425786
1662626195354612094,-0.5161223888397217
1662626195358682091,-0.5161223888397217
1662626195362559895,-0.6310939311981202
1662626195366490971,-0.6310939311981202
1662626195370587323,-0.7316940307617188
1662626195374492911,-0.7316940307617188
1662626195378537977,-0.7819940567016602
1662626195406597751,-0.6670225143432618
1662626195414667001,-0.6670225143432618
1662626195418611226,-0.5664224147796632
1662626195422581812,-0.45142312049865724
1662626195426588786,-0.45142312049865724
1662626195430647771,-0.33645157814025883
1662626195434550528,-0.33645157814025883
1662626195438606094,-0.19992287158966066
1662626195442590897,-0.19992287158966066
1662626195446646889,-0.027437806129455566
1662626195450555657,-0.027437806129455566
1662626195454551969,-0.0
1662626195458484766,-0.0
1662626195462553070,0.1280933976173401
1662626195466516044,0.1280933976173401
1662626195470608288,0.29339275360107425
1662626195474504725,0.29339275360107425
1662626195478644808,0.41554999351501465
1662626195482593589,0.41554999351501465
1662626195486564059,0.5305492877960205
1662626195490694701,0.645520830154419
1662626195498565625,0.7317495346069336
1662626195506643344,0.782049560546875
1662626195514720702,0.8
1662626195538631970,0.710192346572876
1662626195546604571,0.5952208042144775
1662626195554617820,0.4802215099334717
1662626195558588195,0.3652499675750733
1662626195566619001,0.2574641227722168
1662626195574593043,0.1424648404121399
1662626195582653005,0.03467901349067688
1662626195590713964,-0.0
1662626195598551733,-0.0
1662626195938731234,-0.0
1662626195946656222,0.04186473786830902
1662626195954560719,0.1568362832069397
1662626195962543516,0.2718355655670166
1662626195970656495,0.386807131767273
1662626195978676246,0.5018064022064209
1662626195982648149,0.6095922470092774
1662626195990791574,0.703006649017334
1662626195998622733,0.7676781177520753
1662626196006501497,0.8
1662626196038627628,0.8
1662626196046592306,0.8
1662626196054578565,0.8
1662626196062670376,0.8
1662626196070606455,0.8
1662626196074548521,0.6886352062225343
1662626196078589145,0.6886352062225343
1662626196082568038,0.5736636161804199
1662626196086608932,0.5736636161804199
1662626196090545449,0.4586643218994141
1662626196094633663,0.4586643218994141
1662626196098485059,0.32932136058807376
1662626196102497665,0.32932136058807376
1662626196106412030,0.1640220046043396
1662626196110555911,0.1640220046043396
1662626196114577434,-0.0
1662626196122733196,-0.020252083241939545
1662626196126523398,-0.020252083241939545
1662626196130572501,-0.22148003578186037
1662626196134463317,-0.22148003578186037
1662626196138513592,-0.3795659065246582
1662626196142601429,-0.3795659065246582
1662626196146502307,-0.4945374488830567
1662626196150466433,-0.4945374488830567
1662626196154563169,-0.6095367431640626
1662626196158575997,-0.6095367431640626
1662626196162509724,-0.7029511451721192
1662626196166568810,-0.7029511451721192
1662626196170536663,-0.7604369163513184
1662626196174503303,-0.7604369163513184
1662626196178545631,-0.7748083591461182
1662626196182638324,-0.7748083591461182
1662626196186602567,-0.7748083591461182
1662626196190574808,-0.7748083591461182
1662626196194533377,-0.6454653739929199
1662626196198640382,-0.6454653739929199
1662626196202578776,-0.5304938316345215
1662626196206434980,-0.5304938316345215
1662626196210556395,-0.40112309455871586
1662626196214622036,-0.40112309455871586
1662626196218481208,-0.21429431438446045
1662626196222468001,-0.21429431438446045
1662626196226526662,-0.013066361844539643
1662626196230516804,-0.013066361844539643
1662626196234463941,-0.0
1662626196238499469,-0.0
1662626196242508867,0.1712077260017395
1662626196250594194,0.3508785247802735
1662626196254536152,0.49459295272827153
1662626196262571321,0.49459295272827153
1662626196266533062,0.6024065017700195
1662626196270613272,0.6024065017700195
1662626196274488279,0.703006649017334
1662626196278528521,0.703006649017334
1662626196282527182,0.7533066749572754
1662626196286521062,0.7533066749572754
1662626196290531808,0.774863862991333
1662626196294408746,0.774863862991333
1662626196298427209,0.7892353057861329
1662626196302547486,0.7892353057861329
1662626196306364370,0.7964210033416749
1662626196310502859,0.7964210033416749
1662626196314535202,0.7964210033416749
1662626196322789197,0.7964210033416749
1662626196326527879,0.7389352321624756
1662626196334561458,0.6742637634277344
1662626196342582906,0.5736636161804199
1662626196350689544,0.4586643218994141
1662626196354591128,0.4586643218994141
1662626196358565292,0.34369280338287356
1662626196362472438,0.34369280338287356
1662626196366486722,0.19997836351394654
1662626196370502577,0.19997836351394654
1662626196374538161,0.020307570695877075
1662626196378574578,0.020307570695877075
1662626196382510396,-0.0
1662626196386527746,-0.0
1662626196390542923,-0.1136664628982544
1662626196394608168,-0.1136664628982544
1662626196398476049,-0.26459436416625975
1662626196402659695,-0.26459436416625975
1662626196406509608,-0.3795659065246582
1662626196410536386,-0.3795659065246582
1662626196414524806,-0.45860886573791504
1662626196418482974,-0.45860886573791504
1662626196422502627,-0.5161223888397217
1662626196426487717,-0.5161223888397217
1662626196434510823,-0.5161223888397217
1662626196438611682,-0.43705167770385744
1662626196442454882,-0.33645157814025883
1662626196446524653,-0.33645157814025883
1662626196450523919,-0.17833796739578248
1662626196454572650,-0.17833796739578248
1662626196458510772,-0.0
1662626196462623187,-0.0
1662626196466612895,-0.0
1662626196474620635,0.1568362832069397
1662626196482488436,0.31494991779327397
1662626196486574413,0.31494991779327397
1662626196490597987,0.4442928791046143
1662626196494682703,0.4442928791046143
1662626196498605860,0.5592921733856201
1662626196502509577,0.5592921733856201
1662626196506469367,0.6527065753936768
1662626196510636514,0.6527065753936768
1662626196514545134,0.7173780918121339
1662626196518446213,0.7173780918121339
1662626196522510676,0.7533066749572754
1662626196526524569,0.7533066749572754
1662626196530698512,0.774863862991333
1662626196534586401,0.774863862991333
1662626196538601290,0.7892353057861329
1662626196542520708,0.7892353057861329
1662626196550695220,0.7892353057861329
1662626196558520337,0.703006649017334
1662626196566523539,0.6167779445648194
1662626196574691280,0.5018064022064209
1662626196582620485,0.386807131767273
1662626196590550758,0.2502784013748169
1662626196594624120,0.2502784013748169
1662626196598601177,0.07060762643814088
1662626196602553277,0.07060762643814088
1662626196606512173,-0.0
1662626196610553744,-0.0
1662626196614485827,-0.09210929870605469
1662626196618607491,-0.09210929870605469
1662626196622611810,-0.26459436416625975
1662626196626543465,-0.26459436416625975
1662626196630531561,-0.393937349319458
1662626196634525251,-0.393937349319458
1662626196638526023,-0.5017231941223145
1662626196642480441,-0.5017231941223145
1662626196646520436,-0.6095367431640626
1662626196650519955,-0.6095367431640626
1662626196654543159,-0.6813939571380616
1662626196658543755,-0.6813939571380616
1662626196662531292,-0.6957653999328614
1662626196666614034,-0.6957653999328614
1662626196674534168,-0.6957653999328614
1662626196678543982,-0.5664224147796632
1662626196682578341,-0.5664224147796632
1662626196686548075,-0.45860886573791504
1662626196690603036,-0.33645157814025883
1662626196694549172,-0.33645157814025883
1662626196698522869,-0.17115224599838258
1662626196702603584,-0.17115224599838258
1662626196706451629,-0.0
1662626196710634089,-0.0
1662626196714577787,-0.0
1662626196722495108,0.1640220046043396
1662626196730638619,0.32932136058807376
1662626196734562220,0.32932136058807376
1662626196738607404,0.4658500671386719
1662626196742537967,0.4658500671386719
1662626196746503140,0.5808493614196778
